Photoelectron Energy,(d3p->es)^2/4,(d3p->ed)^2,Total
-0.5680000001760199,0.2682144844109432,12.070244179868213,12.338458664279157
-0.5670000001285225,0.266896638752164,11.988651482440662,12.255548121192826
-0.566000000081025,0.26558773133450864,11.90724657185374,12.17283430318825
-0.5650000000335276,0.264287669525611,11.826039820846333,12.090327490371944
-0.5639999999860301,0.26299636260231113,11.745041084985873,12.008037447588185
-0.5629999999385327,0.26171372172403656,11.664259722598372,11.925973444322409
-0.5619999998910352,0.26043965982851797,11.583704614420574,11.844144274249093
-0.5609999998435378,0.25917409184115386,11.503384183680481,11.762558275521634
-0.5599999997960403,0.25791693420391953,11.423306415563607,11.681223349767526
-0.5589999997485429,0.2566681051123067,11.343478876823761,11.600146981936067
-0.5579999997010454,0.2554275244832268,11.263908734809702,11.51933625929293
-0.556999999653548,0.25419511395874,11.184602776237691,11.438797890196431
-0.5559999996060505,0.2529707964755853,11.10556742557392,11.358538222049505
-0.5549999995585531,0.25175449684804485,11.026808762921664,11.27856325976971
-0.5539999995110556,0.2505461409740571,10.948332541435063,11.19887868240912
-0.5529999994635582,0.24934565668527134,10.87014420415256,11.119489860837831
-0.5519999994160607,0.24815297287391394,10.792248900617558,11.040401873491472
-0.5509999993685633,0.24696802004548948,10.714651502231867,10.961619522277356
-0.5499999993210658,0.24579072987313666,10.63735661763131,10.883147347504448
-0.5489999992735684,0.2446210354097531,10.560368607586042,10.804989642995796
-0.5479999992260709,0.2434588711376435,10.483691598060412,10.727150469198056
-0.5469999991785734,0.24230417234136406,10.407329495130297,10.64963366747166
-0.545999999131076,0.24115687612344425,10.331285996200995,10.572442872324439
-0.5449999990835785,0.24001692018463064,10.255564602871443,10.495581523056075
-0.5439999990360811,0.23888424366620792,10.180168632657809,10.419052876324017
-0.5429999989885836,0.23775878660437497,10.105101230351117,10.342860016955493
-0.5419999989410862,0.23664049032751852,10.03036537527059,10.267005865598108
-0.5409999988935887,0.2355292969798966,9.9559638963935,10.191493193373397
-0.5399999988460913,0.23442514973960119,9.88189947732051,10.116324627060113
-0.5389999987985938,0.23332799297658643,9.808174667695084,10.041502660671672
-0.5379999987510964,0.23223777154632308,9.734791887099954,9.967029658646277
-0.5369999987035989,0.23115443156830592,9.66175343782954,9.892907869397847
-0.5359999986561015,0.23007791989950327,9.58906151093858,9.819139430838083
-0.534999998608604,0.2290081841807666,9.516718188217407,9.745726372398174
-0.5339999985611066,0.22794517300117179,9.444725453983567,9.67267062698474
-0.5329999985136091,0.22688883553080594,9.373085199239569,9.599974034770375
-0.5319999984661117,0.225839121890917,9.301799224654268,9.527638346545185
-0.5309999984186142,0.2247959828734132,9.230869247639147,9.45566523051256
-0.5299999983711168,0.2237593698349334,9.160296909854255,9.384056279689188
-0.5289999983236193,0.2227292350164035,9.090083770493145,9.312813005509549
-0.5279999982761219,0.22170553120156003,9.020231322695192,9.241936853896751
-0.5269999982286244,0.2206882117706866,8.950740991373953,9.17142920314464
-0.525999998181127,0.21967723078698403,8.881614134788139,9.101291365575122
-0.5249999981336295,0.2186725427514095,8.812852050341707,9.031524593093117
-0.5239999980861321,0.2176741029819311,8.744455977407958,8.962130080389889
-0.5229999980386346,0.21668186718959961,8.676427093279521,8.893108960469121
-0.5219999979911372,0.21569579150283905,8.608766525150125,8.824462316652964
-0.5209999979436397,0.2147158327654258,8.541475342462517,8.756191175227944
-0.5199999978961423,0.21374194816698863,8.47455456832998,8.688296516496969
-0.5189999978486448,0.21277409533630753,8.408005167955958,8.620779263292265
-0.5179999978011474,0.21181223252776935,8.341828063699362,8.553640296227131
-0.5169999977536499,0.21085631820370354,8.276024126691668,8.486880444895371
-0.5159999977061525,0.20990631148926778,8.210594180502603,8.420500491991872
-0.514999997658655,0.20896217166575023,8.145539003781318,8.354501175447067
-0.5139999976111576,0.20802385849115834,8.080859325360633,8.288883183851791
-0.5129999975636601,0.20709133221688109,8.016555834259584,8.223647166476466
-0.5119999975161627,0.20616455332416994,7.952629167478575,8.158793720802745
-0.5109999974686652,0.2052434826765754,7.889079924141313,8.094323406817889
-0.5099999974211678,0.2043280813895797,7.825908650757787,8.030236732147367
-0.5089999973736703,0.20341831109817396,7.763115857118593,7.966534168216767
-0.5079999973261728,0.20251413355511752,7.700702002595521,7.903216136150639
-0.5069999972786754,0.20161551091454877,7.638667503527496,7.840283014442045
-0.505999997231178,0.20072240560600318,7.577012734786496,7.777735140392499
-0.5049999971836805,0.19983478031684862,7.515738021546032,7.715572801862881
-0.503999997136183,0.19895259801833395,7.4548436508651035,7.653796248883437
-0.5029999970886856,0.19807582196188303,7.394329859110221,7.592405681072104
-0.5019999970411881,0.19720441560634913,7.334196839019051,7.5314012546254006
-0.5009999969936907,0.1963383427417595,7.2744447364531615,7.470783079194921
-0.49999999694619324,0.19547756729332866,7.2150736570876095,7.410551224380939
-0.4989999968986958,0.1946220534732065,7.156083660708023,7.350705714181229
-0.49799999685119833,0.19377176576339303,7.097474754837501,7.291246520600894
-0.4969999968037009,0.19292666875528525,7.039246910878071,7.232173579633356
-0.49599999675620343,0.19208672733700605,6.981400044804226,7.173486772141232
-0.494999996708706,0.19125190657343386,6.923934036544202,7.115185943117636
-0.49399999666120853,0.19042217173355738,6.866848711272036,7.057270883005593
-0.4929999966137111,0.18959748832871795,6.810143853953196,6.999741342281914
-0.4919999965662136,0.18877782194922046,6.7538192033681606,6.942597025317381
-0.4909999965187162,0.18796313850538438,6.697874448791079,6.885837587296463
-0.4899999964712187,0.18715340400251795,6.642309234335472,6.82946263833799
-0.4889999964237213,0.18634858466764045,6.587123163006132,6.7734717476737725
-0.4879999963762238,0.18554864688925718,6.532315786201519,6.717864433090776
-0.48699999632872637,0.1847535571962737,6.477886614236709,6.662640171432983
-0.4859999962812289,0.18396328239036858,6.423835107234953,6.607798389625321
-0.48499999623373147,0.1831777893111747,6.370160685404267,6.553338474715441
-0.483999996186234,0.1823970450399336,6.316862720697392,6.4992597657373254
-0.48299999613873656,0.18162101684121237,6.263940540627181,6.445561557468394
-0.4819999960912391,0.1808496720630653,6.21139342902869,6.392243101091755
-0.48099999604374166,0.18008297827686895,6.159220627289707,6.339303605566576
-0.4799999959962442,0.1793209031664787,6.107421330065452,6.286742233231931
-0.47899999594874676,0.17856341462027295,6.05599469087146,6.2345581054917325
-0.4779999959012493,0.17781048062874902,6.004939819297603,6.182750299926353
-0.47699999585375186,0.17706206936996968,5.954255783338309,6.131317852708278
-0.4759999958062544,0.17631814916288582,5.903941611608246,6.080259760771132
-0.47499999575875695,0.17557868847583957,5.853996286061382,6.029574974537222
-0.4739999957112595,0.1748436559293649,5.804418752624094,5.979262408553459
-0.47299999566376205,0.17411302028852957,5.755207916936504,5.929320937225033
-0.4719999956162646,0.17338675047100935,5.706362643367137,5.879749393838146
-0.47099999556876715,0.1726648155496263,5.657881759434077,5.830546574983703
-0.4699999955212697,0.17194718473476261,5.609764053170567,5.78171123790533
-0.46899999547377225,0.17123382739734896,5.562008277063814,5.733242104461163
-0.4679999954262748,0.17052471303170647,5.5146131455451295,5.6851378585768355
-0.46699999537877734,0.16981981130305238,5.467577339257832,5.637397150560885
-0.4659999953312799,0.16911909202013903,5.420899501505383,5.590018593525523
-0.46499999528378244,0.16842252513325834,5.374578244366242,5.543000769499501
-0.463999995236285,0.1677300807441249,5.328612144102655,5.49634222484678
-0.46299999518878754,0.16704172909884663,5.282999746068091,5.4500414751669375
-0.4619999951412901,0.16635744059978588,5.237739563930558,5.404097004530343
-0.46099999509379264,0.1656771858052902,5.192830079023448,5.358507264828738
-0.4599999950462952,0.1650009353952514,5.148269745739085,5.313270681134336
-0.45899999499879773,0.16432866022875114,5.104056986939599,5.26838564716835
-0.4579999949513003,0.1636603313002223,5.06019019911939,5.223850530419612
-0.45699999490380283,0.16299591975773897,5.016667750704315,5.179663670462054
-0.4559999948563054,0.16233539690276877,4.9734879843424515,5.1358233812452205
-0.45499999480880793,0.1616787341942067,4.9306492172886305,5.0923279514828375
-0.4539999947613105,0.16102590323607113,4.888149741979696,5.049175645215767
-0.452999994713813,0.16037687578500634,4.845987828212985,5.006364703997992
-0.4519999946663156,0.15973162376052555,4.80416172302142,4.963893346781946
-0.4509999946188181,0.15909011923374783,4.762669651080365,4.921759770314114
-0.44999999457132067,0.15845233442497383,4.721509817273545,4.8799621516985185
-0.4489999945238232,0.15781824172403158,4.68068040565658,4.838498647380612
-0.44799999447632577,0.1571878136640856,4.640179583007582,4.7973673966716674
-0.4469999944288283,0.15656102294842833,4.600005496662479,4.756566519610907
-0.44599999438133087,0.155937842432118,4.560156277412392,4.716094119844509
-0.4449999943338334,0.15531824513196982,4.520630040016791,4.6759482851487615
-0.44399999428633596,0.15470220422510586,4.481424883795833,4.636127088020938
-0.4429999942388385,0.1540896930490029,4.4425388935732455,4.5966285866222485
-0.44199999419134106,0.1534806851041756,4.403970140934556,4.557450826038731
-0.4409999941438436,0.15287515405284013,4.365716684419877,4.518591838472718
-0.43999999409634616,0.1522730737197366,4.327776571147215,4.480049644866951
-0.4389999940488487,0.1516744180947613,4.290147836805193,4.441822254899955
-0.43799999400135126,0.1510791613316308,4.252828507216226,4.403907668547857
-0.4369999939538538,0.1504872777495636,4.2158165988245395,4.366303876574103
-0.43599999390635635,0.14989874183323115,4.179110119406936,4.329008861240167
-0.4349999938588589,0.1493135282340637,4.142707069142072,4.292020597376136
-0.43399999381136145,0.14873161177031544,4.106605441031833,4.255337052802148
-0.432999993763864,0.14815296742793252,4.07080322198028,4.218956189408213
-0.43199999371636655,0.14757757036093327,4.035298393297461,4.182875963658395
-0.4309999936688691,0.14700539589197092,4.000088931642785,4.147094327534756
-0.42999999362137165,0.14643641951284966,3.965172809545372,4.111609229058222
-0.4289999935738742,0.1458706168849383,3.930547996219457,4.076418613104395
-0.42799999352637674,0.14530796383961223,3.8962124581672635,4.041520422006876
-0.4269999934788793,0.1447484363787753,3.8621641599325556,4.006912596311331
-0.42599999343138184,0.14419201067504406,3.8284010646563633,3.9725930753314076
-0.4249999933838844,0.14363866307218953,3.7949211347632343,3.938559797835424
-0.42399999333638694,0.14308837008545314,3.7617223325726483,3.9048107026581014
-0.4229999932888895,0.14254110840190798,3.728802620868781,3.8713437292706887
-0.42199999324139204,0.1419968548807682,3.696159963512493,3.8381568183932613
-0.4209999931938946,0.14145558655296928,3.663792325986493,3.8052479125394623
-0.41999999314639713,0.14091728062228612,3.631697675951144,3.77261495657343
-0.4189999930988997,0.1403819144644543,3.5998739837730764,3.740255898237531
-0.41799999305140223,0.13984946563006895,3.5683192230388134,3.7081686886688825
-0.4169999930039048,0.13931991183918965,3.5370313710525676,3.676351282891757
-0.4159999929564073,0.13879323098651228,3.5060084093181145,3.644801640304627
-0.4149999929089099,0.1382694011423833,3.475248323995487,3.6135177251378705
-0.4139999928614124,0.1377484005428972,3.444749106370552,3.5824975069134495
-0.412999992813915,0.13723020760526106,3.4145087532424268,3.551738960847688
-0.4119999927664175,0.13671480091129212,3.3845252674033874,3.5212400683146794
-0.41099999271892007,0.13620215922322282,3.35479665797246,3.490998817195683
-0.4099999926714226,0.1356922614696068,3.3253209408576376,3.4610132023272446
-0.40899999262392517,0.13518508675626129,3.296096139006759,3.43128122576302
-0.4079999925764277,0.13468061435901402,3.2671202828745964,3.4018008972336107
-0.40699999252893027,0.13417882372547657,3.2383914107213796,3.372570234446856
-0.4059999924814328,0.1336796944716111,3.209907568881161,3.3435872633527723
-0.40499999243393536,0.13318320638990053,3.181666812239086,3.3148500186289866
-0.4039999923864379,0.1326893394463848,3.153667204218716,3.286356543665101
-0.40299999233894046,0.13219807376930415,3.125906817468947,3.258104891238251
-0.401999992291443,0.13170938966204632,3.0983837337588884,3.230093123420935
-0.40099999224394556,0.13122326759457845,3.07109604440941,3.2023193120039886
-0.3999999921964481,0.1307396882145466,3.044041850497277,3.1747815387118234
-0.39899999214895066,0.13025863232902934,3.017219263243936,3.1474778955729654
-0.3979999921014532,0.12978008092241872,2.9906264038539527,3.1204064847763715
-0.39699999205395575,0.12930401513295697,2.964261404172326,3.093565419305283
-0.3959999920064583,0.1288304162811781,2.9381224063489904,3.0669528226301686
-0.39499999195896085,0.12835926585182736,2.91220756361292,3.040566829464747
-0.3939999919114634,0.12789054548967496,2.8865150399564388,3.014405585446114
-0.39299999186396595,0.12742423700862746,2.86104301049907,2.9884672475076974
-0.3919999918164685,0.12696032238213292,2.835789661572519,2.962749983954652
-0.39099999176897104,0.12649878375722975,2.8107531911187706,2.937251974876
-0.3899999917214736,0.12603960343968548,2.785931808075482,2.911971411515167
-0.38899999167397614,0.12558276389503065,2.761323733641299,2.886906497536329
-0.3879999916264787,0.1251282477545315,2.736927200189242,2.862055447943774
-0.38699999157898124,0.12467603781084377,2.7127404522166785,2.8374164900275223
-0.3859999915314838,0.12422611701874592,2.688761745822672,2.812987862841418
-0.38499999148398634,0.12377846848344452,2.664989349538531,2.7887678180219755
-0.3839999914364889,0.12333307547879985,2.6414215434687294,2.764754618947529
-0.38299999138899143,0.12288992143300731,2.6180566200324784,2.740946541465486
-0.381999991341494,0.1224489899221206,2.59489288376085,2.7173418736829706
-0.38099999129399653,0.12201026469985163,2.5719286512923607,2.6939389159922125
-0.3799999912464991,0.12157372965681927,2.5491622517980757,2.6707359814548948
-0.37899999119900163,0.12113936884548894,2.5265920263334762,2.6477313951789654
-0.3779999911515042,0.12070716645457688,2.5042163285002177,2.6249234949547944
-0.3769999911040067,0.12027710685925314,2.4820335239827265,2.6023106308419797
-0.3759999910565093,0.11984917454855311,2.4600419910557267,2.57989116560428
-0.3749999910090118,0.11942335418938092,2.438240119887693,2.557663474077074
-0.3739999909615144,0.11899963058716823,2.4166263133252746,2.535625943912443
-0.3729999909140169,0.11857798868896913,2.395198986424823,2.513776975113792
-0.37199999086651947,0.11815841359995478,2.373956566517402,2.492114980117357
-0.370999990819022,0.11774089055883562,2.352897492820822,2.4706383833796575
-0.36999999077152457,0.11732540495874379,2.3320202176042115,2.4493456225629555
-0.3689999907240271,0.11691194234954647,2.311323204781416,2.4282351471309624
-0.36799999067652966,0.1165004883917464,2.290804930305092,2.4073054186968386
-0.3669999906290322,0.11609102890808312,2.270463883053528,2.386554911961611
-0.36599999058153476,0.11568354985511263,2.2502985630489625,2.3659821129040752
-0.3649999905340373,0.11527803733454207,2.230307482878559,2.3455855202131013
-0.36399999048653986,0.11487447759129271,2.2104891674863447,2.3253636450776374
-0.3629999904390424,0.11447285698191113,2.190842152772657,2.3053150097545685
-0.36199999039154496,0.11407316201998162,2.171364987750176,2.2854381497701577
-0.3609999903440475,0.11367537935696516,2.1520562322410135,2.2657316115979786
-0.35999999029655005,0.11327949575960623,2.132914458785338,2.2461939545449443
-0.3589999902490526,0.11288549813770926,2.113938250786146,2.2268237489238554
-0.35799999020155515,0.11249337354205817,2.0951262040752696,2.207619577617328
-0.3569999901540577,0.11210310912987283,2.0764769254795294,2.1885800346094024
-0.35599999010656025,0.11171469220429972,2.057989033595233,2.1697037257995326
-0.3549999900590628,0.11132811018810453,2.039661158866972,2.150989269055077
-0.35399999001156535,0.11094335063024931,2.0214919423101567,2.1324352929404062
-0.3529999899640679,0.11056040121216097,2.003480036974619,2.11404043818678
-0.35199998991657044,0.11017924972620789,1.9856241067623832,2.095803356488591
-0.350999989869073,0.10979988410575245,1.9679228269642834,2.077722711070036
-0.34999998982157554,0.10942229239189692,1.950374883644209,2.059797176036106
-0.3489999897740781,0.10904646273620415,1.9329789744086512,2.042025437144855
-0.34799998972658064,0.10867238343007118,1.9157338069526753,2.0244061903827464
-0.3469999896790832,0.10830004286825624,1.8986381006624373,2.0069381435306934
-0.34599998963158574,0.10792942957424587,1.8816905850124654,1.9896200145867113
-0.3449999895840883,0.10756053217205369,1.864890000638043,1.9724505328100967
-0.34399998953659083,0.10719333939637352,1.8482350984238851,1.9554284378202587
-0.3429999894890934,0.10682784012452783,1.8317246400607652,1.938552480185293
-0.34199998944159593,0.10646402331881698,1.8153573973201098,1.9218214206389268
-0.3409999893940985,0.10610187804418383,1.7991321525198627,1.9052340305640465
-0.33999998934660103,0.10574139350334927,1.7830476981978747,1.888789091701224
-0.3389999892991036,0.10538255897670945,1.7671028368769852,1.8724853958536947
-0.3379999892516061,0.10502536388641973,1.7512963815042317,1.8563217453906515
-0.3369999892041087,0.10466979771551313,1.7356271546170743,1.8402969523325874
-0.3359999891566112,0.10431585008579347,1.720093989000349,1.8244098390861425
-0.33499998910911377,0.10396351071317947,1.704695727084636,1.8086592377978155
-0.3339999890616163,0.10361276939965011,1.6894312208732354,1.7930439902728854
-0.33299998901411887,0.10326361607406574,1.6742993322844637,1.7775629483585293
-0.3319999889666214,0.10291604074174072,1.6592989328487129,1.7622149735904535
-0.33099998891912397,0.10257003351813482,1.644428903151812,1.7469989366699468
-0.3299999888716265,0.10222558461359017,1.629688133647817,1.7319137182614073
-0.32899998882412906,0.10188268431859027,1.615075523694921,1.7169582080135113
-0.3279999887766316,0.10154132306354109,1.6005899822179483,1.7021313052814895
-0.32699998872913416,0.10120149130920614,1.5862304270320875,1.6874319183412936
-0.3259999886816367,0.1008631796470802,1.5719957853540711,1.6728589650011514
-0.32499998863413926,0.10052637875740755,1.5578849925764202,1.6584113713338278
-0.3239999885866418,0.10019107940809216,1.5438969941028813,1.6440880735109735
-0.32299998853914436,0.09985727244057441,1.5300307433703724,1.6298880158109468
-0.3219999884916469,0.099524948808031,1.5162852028528933,1.6158101516609242
-0.32099998844414945,0.09919409952847523,1.502659343315053,1.6018534428435283
-0.319999988396652,0.09886471571628308,1.4891521447097076,1.5880168604259906
-0.31899998834915455,0.09853678857444682,1.4757625950804,1.574299383654847
-0.3179999883016571,0.0982103093807277,1.4624896908639546,1.5607000002446823
-0.31699998825415965,0.09788526949315501,1.449332436996766,1.547217706489921
-0.3159999882066622,0.09756166036776429,1.436289846783677,1.5338515071514414
-0.31499998815916475,0.0972394735074852,1.4233609413826058,1.5206004148900911
-0.3139999881116673,0.09691870051759449,1.410544750365722,1.5074634508833165
-0.31299998806416984,0.09659933309177507,1.3978403113138946,1.4944396444056698
-0.3119999880166724,0.09628136296826574,1.3852466695963939,1.4815280325646596
-0.31099998796917494,0.09596478198429365,1.3727628788514123,1.468727660835706
-0.3099999879216775,0.09564958205643738,1.3603880001193007,1.456037582175738
-0.30899998787418004,0.09533575514970692,1.348121102637108,1.443456857786815
